,data,time
0,419.0625,5680.0
1,419.0625,11509.0
2,419.625,17389.0
3,418.3125,23254.0
4,420.0,29265.0
5,420.1875,35288.0
6,419.25,41216.0
7,420.375,47287.0
8,420.5625,53414.0
9,420.1875,59446.0
10,419.625,65990.0
11,418.875,72340.0
12,416.25,86057.0
13,419.8125,93506.0
14,418.6875,100933.0
15,419.625,107607.0
16,419.8125,113500.0
17,417.9375,120553.0
18,419.4375,127016.0
19,420.375,133506.0
20,420.1875,140606.0
21,419.25,147017.0
22,418.5,153577.0
23,418.125,159520.0
24,416.25,165375.0
25,417.0,171197.0
26,416.8125,177259.0
27,415.125,184589.0
28,416.25,192845.0
29,416.4375,200066.0
30,417.75,207389.0
31,417.9375,214415.0
32,417.5625,220283.0
33,418.125,226666.0
34,417.9375,233986.0
35,417.75,241614.0
36,417.5625,248080.0
37,417.9375,254612.0
38,416.8125,261057.0
39,416.25,267287.0
40,415.875,273040.0
41,415.5,278954.0
42,415.125,285251.0
43,417.9375,291774.0
44,417.75,298068.0
45,418.3125,304634.0
46,419.25,310649.0
47,420.0,316435.0
48,420.5625,322277.0
49,420.9375,328910.0
50,422.0625,335900.0
51,420.75,342438.0
52,418.6875,348947.0
53,418.3125,355573.0
54,417.75,361552.0
55,417.5625,367409.0
56,418.3125,373927.0
57,418.125,380823.0
58,419.4375,387648.0
59,421.125,394140.0
60,420.9375,400575.0
61,421.125,406440.0
62,422.4375,412245.0
63,423.5625,419166.0
64,423.1875,425871.0
65,424.875,432191.0
66,425.25,438508.0
67,425.0625,444791.0
68,424.875,450807.0
69,421.5,456656.0
70,420.0,463254.0
71,418.5,470201.0
72,417.1875,476850.0
73,417.9375,483348.0
74,418.875,489597.0
75,421.125,495296.0
76,421.3125,501091.0
77,422.4375,506901.0
78,423.75,512802.0
79,424.5,519804.0
80,423.5625,526365.0
81,425.25,532997.0
82,426.5625,539491.0
83,426.375,545526.0
84,426.9375,551317.0
85,426.75,557919.0
86,426.1875,564794.0
87,428.25,571468.0
88,429.5625,577281.0
89,429.9375,583500.0
90,430.6875,590242.0
91,433.875,596155.0
92,434.625,601892.0
93,438.0,607860.0
94,438.9375,613736.0
95,439.125,620049.0
96,438.75,626071.0
97,441.375,633068.0
98,443.25,640241.0
99,444.75,647049.0
100,446.625,653758.0
101,447.75,660414.0
102,450.375,666395.0
103,451.3125,672251.0
104,453.5625,678590.0
105,453.0,685478.0
106,456.9375,692118.0
107,458.4375,698837.0
108,459.375,704720.0
109,461.8125,710570.0
110,463.5,716445.0
111,464.0625,723097.0
112,465.75,730746.0
113,467.4375,737562.0
114,474.375,743991.0
115,479.25,750565.0
116,487.3125,756598.0
117,492.0,762445.0
118,497.8125,769513.0
119,502.125,776089.0
120,502.5,782479.0
121,504.9375,789331.0
122,506.0625,795354.0
123,504.9375,801223.0
124,506.4375,807080.0
125,510.5625,814035.0
126,512.0625,821081.0
127,513.375,827491.0
128,517.3125,834087.0
129,516.75,840401.0
130,518.625,847385.0
131,521.8125,853305.0
132,523.6875,859146.0
133,525.1875,865560.0
134,525.5625,872184.0
135,526.125,878903.0
136,528.0,885420.0
137,531.5625,891328.0
138,532.3125,897119.0
139,533.25,903051.0
140,534.0,909851.0
141,536.4375,916714.0
142,537.375,923398.0
143,539.4375,929635.0
144,540.75,936627.0
145,541.3125,942576.0
146,542.625,948631.0
147,545.0625,955672.0
148,545.0625,962190.0
149,548.0625,968517.0
150,551.0625,975073.0
151,551.0625,981083.0
152,552.375,987239.0
153,556.3125,993145.0
154,556.125,1000044.0
155,557.625,1007984.0
156,559.5,1014768.0
157,558.5625,1021466.0
158,559.6875,1027444.0
159,561.5625,1033343.0
160,563.0625,1039217.0
161,564.1875,1045188.0
162,566.4375,1051417.0
163,567.1875,1057428.0
164,568.3125,1063407.0
165,570.1875,1069300.0
166,573.5625,1075210.0
167,574.875,1080991.0
168,577.5,1086822.0
169,579.75,1092688.0
170,580.125,1099048.0
171,580.125,1105600.0
172,581.625,1111808.0
173,582.375,1118180.0
174,581.8125,1124609.0
175,584.4375,1130546.0
176,584.4375,1136388.0
177,584.8125,1142991.0
178,586.875,1149327.0
179,588.1875,1155555.0
180,588.5625,1161763.0
181,589.6875,1167912.0
182,592.3125,1173897.0
183,592.5,1179990.0
184,594.375,1186301.0
185,596.4375,1192484.0
186,594.9375,1198797.0
187,596.0625,1204934.0
188,597.0,1210951.0
189,597.0,1216969.0
190,596.4375,1222896.0
191,597.1875,1228940.0
192,597.375,1235894.0
193,598.3125,1243152.0
194,599.0625,1249675.0
195,600.5625,1256203.0
196,598.875,1262451.0
197,599.625,1268975.0
198,600.1875,1274882.0
199,599.8125,1281681.0
200,600.9375,1288427.0
201,603.375,1294829.0
202,601.125,1300922.0
203,600.0,1307125.0
204,600.0,1312973.0
205,600.1875,1319027.0
206,599.4375,1325159.0
207,599.25,1331842.0
208,599.25,1338493.0
209,597.75,1344814.0
210,598.125,1351088.0
211,597.1875,1357430.0
212,597.1875,1363357.0
213,595.6875,1369455.0
214,596.0625,1375791.0
215,595.5,1382166.0
216,597.375,1388524.0
217,598.125,1394808.0
218,598.5,1400682.0
219,599.625,1406631.0
220,600.1875,1413088.0
221,598.5,1420053.0
222,595.3125,1426414.0
223,595.125,1432601.0
224,593.625,1438912.0
225,592.125,1444786.0
226,593.0625,1450577.0
227,592.125,1456634.0
228,589.3125,1463441.0
229,588.75,1470074.0
230,587.625,1476232.0
231,586.125,1482451.0
232,584.625,1488696.0
233,587.625,1494951.0
234,585.375,1500758.0
235,584.0625,1507451.0
236,582.9375,1514301.0
237,579.1875,1521486.0
238,578.25,1527887.0
239,576.75,1533849.0
240,575.625,1539712.0
241,573.9375,1545535.0
242,575.625,1551548.0
243,574.875,1558281.0
244,571.6875,1565090.0
245,571.125,1571086.0
246,570.375,1577511.0
247,567.0,1583773.0
248,564.5625,1589637.0
249,565.3125,1595420.0
250,562.875,1602029.0
251,561.1875,1608681.0
252,560.625,1614938.0
253,559.3125,1621218.0
254,556.3125,1627578.0
255,556.5,1633575.0
256,554.4375,1639673.0
257,552.0,1645994.0
258,551.0625,1652953.0
259,548.0625,1659514.0
260,547.125,1665779.0
261,546.9375,1671820.0
262,546.5625,1677655.0
263,544.6875,1683568.0
264,543.5625,1689738.0
265,542.0625,1696496.0
266,539.25,1703503.0
267,538.3125,1709861.0
268,537.1875,1716251.0
269,534.375,1722535.0
270,532.3125,1728727.0
271,532.3125,1734603.0
272,531.375,1740829.0
273,529.5,1747086.0
274,529.125,1753354.0
275,528.375,1759699.0
276,524.8125,1765853.0
277,519.1875,1771923.0
278,515.25,1778030.0
279,507.9375,1784699.0
280,503.25,1792021.0
281,499.125,1799123.0
282,498.375,1805737.0
283,498.375,1812093.0
284,496.125,1818267.0
285,492.9375,1824097.0
286,492.1875,1830689.0
287,491.625,1837516.0
288,488.0625,1844022.0
289,487.5,1850409.0
290,488.4375,1856853.0
291,485.4375,1863181.0
292,481.3125,1869162.0
293,481.6875,1875173.0
294,478.125,1881983.0
295,477.5625,1888703.0
296,478.5,1895350.0
297,475.875,1901724.0
298,473.4375,1908121.0
299,473.25,1914091.0
300,471.9375,1920911.0
301,470.4375,1927359.0
302,469.3125,1933927.0
303,468.1875,1940335.0
304,465.1875,1947257.0
305,464.0625,1953237.0
306,463.6875,1959202.0
307,460.5,1965229.0
308,459.5625,1972107.0
309,458.8125,1978980.0
310,458.4375,1985427.0
311,456.9375,1991965.0
312,456.1875,1998123.0
313,455.25,2004304.0
314,453.75,2010154.0
315,452.0625,2016053.0
316,451.125,2022361.0
317,448.6875,2028667.0
318,450.75,2035184.0
319,449.4375,2041777.0
320,448.3125,2048236.0
321,449.25,2054331.0
322,448.3125,2060962.0
323,447.375,2067841.0
324,446.625,2073936.0
325,444.1875,2080311.0
326,443.625,2086628.0
327,444.75,2092497.0
328,442.875,2098306.0
329,441.0,2104147.0
330,439.5,2110067.0
331,439.6875,2116708.0
332,438.375,2123352.0
333,438.1875,2129668.0
334,437.4375,2135923.0
335,436.875,2142331.0
336,434.625,2148253.0
337,433.6875,2154117.0
338,432.375,2160371.0
339,431.625,2166591.0
340,432.0,2173115.0
341,431.4375,2179169.0
342,432.75,2184923.0
343,432.9375,2190833.0
344,433.125,2197363.0
345,431.4375,2203883.0
346,432.0,2210456.0
347,432.5625,2216976.0
348,431.0625,2223153.0
349,432.1875,2229143.0
350,432.375,2234926.0
351,431.0625,2241431.0
352,429.75,2248344.0
353,430.6875,2255416.0
354,429.5625,2261833.0
355,430.125,2268060.0
356,431.8125,2274142.0
357,430.3125,2279960.0
358,430.3125,2286428.0
359,431.0625,2293069.0
360,429.9375,2299570.0
361,429.0,2305746.0
362,428.625,2312016.0
363,428.625,2318208.0
364,426.9375,2324339.0
365,427.125,2330242.0
366,426.75,2336544.0
367,430.5,2343184.0
368,429.5625,2349396.0
369,429.0,2355656.0
370,429.1875,2362166.0
371,429.375,2368307.0
372,428.0625,2374295.0
373,429.5625,2380585.0
374,427.6875,2387255.0
375,428.4375,2393513.0
376,429.0,2399829.0
377,427.5,2405703.0
378,428.0625,2411471.0
379,429.0,2417392.0
380,429.5625,2423890.0
381,429.75,2430508.0
382,430.5,2436869.0
383,430.125,2443218.0
384,432.5625,2449612.0
385,434.0625,2455703.0
386,432.9375,2462536.0
387,431.625,2469216.0
388,432.1875,2475536.0
389,430.5,2481825.0
390,430.125,2488103.0
391,431.25,2494052.0
392,431.4375,2499859.0
393,430.3125,2506106.0
394,430.875,2512410.0
395,429.5625,2518558.0
396,429.375,2524718.0
397,431.4375,2531041.0
398,431.625,2537300.0
399,430.3125,2543217.0
400,430.875,2549108.0
401,433.125,2555047.0
402,433.5,2561556.0
403,431.8125,2568192.0
404,431.625,2574101.0
405,430.875,2580201.0
406,429.375,2586598.0
407,429.9375,2592877.0
408,429.375,2599095.0
409,427.5,2604915.0
410,428.625,2611201.0
411,430.6875,2618231.0
412,430.875,2624842.0
413,431.25,2631302.0
414,433.3125,2637620.0
415,431.8125,2643613.0
416,433.3125,2649443.0
417,435.375,2655281.0
418,436.125,2661553.0
419,437.0625,2668630.0
420,438.75,2675648.0
421,437.0625,2681973.0
422,435.5625,2688238.0
423,435.0,2694222.0
424,436.125,2700462.0
425,435.375,2706454.0
426,436.5,2712854.0
427,434.625,2719145.0
428,434.0625,2725477.0
429,444.75,2731725.0
430,453.75,2738058.0
431,460.875,2744283.0
432,470.0625,2750132.0
433,478.875,2756052.0
434,487.3125,2762393.0
435,495.75,2768976.0
436,504.5625,2775343.0
437,510.5625,2781615.0
438,517.5,2787902.0
439,524.25,2793849.0
440,531.0,2800118.0
441,535.3125,2806062.0
442,542.8125,2812566.0
443,547.3125,2819259.0
444,550.125,2825447.0
445,557.25,2831867.0
446,560.4375,2837917.0
447,562.875,2843867.0
448,566.4375,2849730.0
449,568.875,2855691.0
450,572.25,2862214.0
451,575.25,2868740.0
452,577.3125,2875074.0
453,576.1875,2881576.0
454,576.75,2887676.0
455,577.125,2893711.0
456,575.25,2899578.0
457,575.25,2905508.0
458,575.0625,2911875.0
459,575.4375,2918457.0
460,572.625,2924908.0
461,571.875,2931443.0
462,572.25,2937542.0
463,572.4375,2943724.0
464,573.375,2949587.0
465,573.75,2955576.0
466,574.5,2961901.0
467,575.8125,2968626.0
468,575.8125,2975129.0
469,574.6875,2981459.0
470,574.5,2987916.0
471,575.0625,2994010.0
472,574.6875,2999914.0
473,572.4375,3005917.0
474,573.75,3012526.0
475,573.1875,3019670.0
476,573.1875,3026226.0
477,566.625,3032564.0
478,562.125,3039351.0
479,557.0625,3045531.0
480,553.125,3051461.0
481,552.9375,3057480.0
482,551.625,3064295.0
483,553.125,3071249.0
484,553.3125,3077715.0
485,552.9375,3084145.0
486,555.0,3090228.0
487,557.0625,3096158.0
488,557.8125,3102043.0
489,557.0625,3108610.0
490,557.625,3116158.0
491,558.375,3123129.0
492,558.0,3129585.0
493,558.75,3135906.0
494,559.6875,3141913.0
495,558.9375,3147703.0
496,562.875,3154137.0
497,565.875,3161267.0
498,565.875,3167175.0
499,569.4375,3173116.0
500,570.375,3179027.0
501,568.875,3184837.0
502,572.8125,3190682.0
503,574.3125,3196508.0
504,574.3125,3202481.0
505,572.8125,3208725.0
506,575.4375,3215136.0
507,574.875,3221305.0
508,576.5625,3227525.0
509,578.625,3233662.0
510,578.8125,3239697.0
511,580.5,3245485.0
512,581.4375,3252296.0
513,581.8125,3258289.0
514,583.875,3264392.0
515,585.0,3270392.0
516,587.4375,3276358.0
517,588.0,3282338.0
518,589.3125,3288208.0
519,590.4375,3294110.0
520,590.25,3300610.0
521,591.0,3306933.0
522,594.0,3313219.0
523,593.4375,3319641.0
524,593.0625,3326076.0
525,595.875,3332071.0
526,596.0625,3337902.0
527,597.375,3343760.0
528,597.5625,3349973.0
529,600.1875,3356146.0
530,599.0625,3362341.0
531,597.9375,3368468.0
532,599.8125,3374460.0
533,600.9375,3380485.0
534,599.25,3386957.0
535,602.25,3393071.0
536,605.4375,3399178.0
537,608.25,3405270.0
538,611.0625,3411495.0
539,612.9375,3417397.0
540,612.375,3423188.0
541,611.4375,3429168.0
542,613.3125,3435360.0
543,614.0625,3441591.0
544,615.1875,3447866.0
545,615.5625,3454227.0
546,615.375,3460560.0
547,613.5,3466466.0
548,615.5625,3472229.0
549,615.9375,3478833.0
550,615.0,3485735.0
551,616.6875,3491959.0
552,618.1875,3498325.0
553,617.4375,3504442.0
554,617.8125,3510453.0
555,618.5625,3516295.0
556,617.4375,3522285.0
557,617.625,3528437.0
558,619.6875,3535129.0
559,618.0,3541334.0
560,618.1875,3547655.0
561,618.5625,3553906.0
562,617.25,3559883.0
563,616.5,3565806.0
564,614.625,3572429.0
565,616.5,3578665.0
566,614.25,3584926.0
567,616.125,3591300.0
568,616.875,3597181.0
569,614.25,3603040.0
570,613.125,3610122.0
571,615.0,3616775.0
572,612.75,3623259.0
573,611.625,3629789.0
574,611.0625,3636151.0
575,610.5,3642507.0
576,609.1875,3648721.0
577,609.0,3654751.0
578,608.25,3661785.0
579,606.9375,3668985.0
580,607.125,3675400.0
581,605.625,3681630.0
582,603.75,3688046.0
583,603.75,3694369.0
584,602.0625,3700435.0
585,601.3125,3706257.0
586,599.625,3712239.0
587,598.125,3718474.0
588,595.5,3724663.0
589,594.9375,3730767.0
590,592.875,3737163.0
591,590.0625,3743364.0
592,589.6875,3749247.0
593,588.375,3755290.0
594,587.25,3761617.0
595,586.3125,3768046.0
596,585.0,3774281.0
597,583.6875,3780355.0
598,581.8125,3786209.0
599,582.75,3792003.0
600,583.5,3797828.0
601,577.3125,3803646.0
602,572.0625,3809854.0
603,569.25,3816812.0
604,562.125,3823312.0
605,559.6875,3829569.0
606,558.5625,3835792.0
607,555.75,3841886.0
608,553.125,3848127.0
609,553.3125,3853934.0
610,552.75,3859744.0
611,550.3125,3866218.0
612,550.125,3873087.0
613,547.3125,3879606.0
614,545.625,3885715.0
615,544.5,3892106.0
616,544.3125,3898508.0
617,543.5625,3904316.0
618,543.375,3910130.0
619,543.1875,3916283.0
620,540.9375,3923092.0
621,538.5,3929505.0
622,535.6875,3935689.0
623,533.625,3941864.0
624,529.6875,3948350.0
625,528.9375,3954878.0
626,528.375,3960866.0
627,526.875,3966709.0
628,523.5,3973391.0
629,522.75,3980209.0
630,519.5625,3986705.0
631,520.5,3992945.0
632,522.375,3999347.0
633,518.8125,4005419.0
634,519.375,4011239.0
635,518.4375,4017062.0
636,517.125,4023173.0
637,515.8125,4029805.0
638,514.6875,4036060.0
639,512.0625,4042304.0
640,510.0,4048456.0
641,507.9375,4055036.0
642,506.625,4061080.0
643,505.6875,4066870.0
644,505.3125,4072769.0
645,501.0,4079017.0
646,498.5625,4085419.0
647,498.5625,4091511.0
648,497.8125,4097965.0
649,494.4375,4104280.0
650,492.0,4110100.0
651,491.4375,4116111.0
652,490.875,4122586.0
653,489.0,4129307.0
654,489.75,4135601.0
655,487.875,4141893.0
656,484.125,4148043.0
657,485.0625,4153838.0
658,481.6875,4159840.0
659,479.0625,4166240.0
660,478.5,4172643.0
661,477.75,4178972.0
662,475.6875,4185385.0
663,475.5,4191668.0
664,475.125,4197701.0
665,474.0,4203786.0
666,474.75,4210158.0
667,473.4375,4216437.0
668,470.25,4222779.0
669,469.875,4228816.0
670,467.4375,4234728.0
671,466.3125,4240537.0
672,462.75,4246354.0
673,462.0,4252291.0
674,459.375,4258507.0
675,458.4375,4264809.0
676,456.5625,4271084.0
677,456.9375,4277279.0
678,455.4375,4283644.0
679,453.5625,4289574.0
680,450.1875,4295491.0
681,448.125,4301788.0
682,444.375,4307818.0
683,442.3125,4314037.0
684,441.5625,4320392.0
685,438.5625,4326667.0
686,435.75,4332650.0
687,435.75,4338484.0
688,434.0625,4344300.0
689,435.5625,4350516.0
690,433.6875,4357650.0
691,431.25,4363955.0
692,432.0,4369926.0
693,431.4375,4376089.0
694,430.3125,4382149.0
695,429.375,4388043.0
696,431.25,4393823.0
697,432.0,4400558.0
698,431.8125,4406792.0
699,431.4375,4412911.0
700,432.5625,4418945.0
701,432.75,4425306.0
702,433.5,4431277.0
703,432.375,4437113.0
704,430.875,4442931.0
705,428.625,4448707.0
706,429.1875,4455077.0
707,430.3125,4461340.0
708,427.875,4467610.0
709,426.0,4473658.0
710,425.4375,4479825.0
711,424.125,4485645.0
712,423.0,4491664.0
713,423.9375,4498060.0
714,423.375,4504536.0
715,423.1875,4510761.0
716,425.625,4517433.0
717,426.375,4523460.0
718,428.0625,4529641.0
719,427.6875,4535475.0
720,426.9375,4541924.0
721,422.8125,4548811.0
722,422.4375,4555211.0
723,420.5625,4561750.0
724,421.125,4567961.0
725,421.3125,4574144.0
726,422.25,4580478.0
727,419.8125,4586479.0
728,419.4375,4592895.0
729,419.4375,4600305.0
730,420.375,4606596.0
731,421.125,4612922.0
732,421.125,4619183.0
733,421.3125,4625094.0
734,421.875,4630860.0
735,423.1875,4637505.0
736,423.0,4643756.0
737,422.25,4650277.0
738,422.25,4656648.0
739,422.4375,4662668.0
740,420.375,4668459.0
741,421.6875,4674895.0
742,420.9375,4681695.0
743,420.9375,4688116.0
744,422.4375,4694430.0
745,421.875,4700722.0
746,421.3125,4707358.0
747,420.5625,4713670.0
748,421.6875,4719708.0
749,421.3125,4725735.0
750,422.8125,4731768.0
751,424.125,4739048.0
752,423.9375,4745630.0
753,424.3125,4752405.0
754,425.25,4758873.0
755,425.0625,4765871.0
756,426.0,4772070.0
757,426.0,4778062.0
758,425.8125,4784095.0
759,423.9375,4790105.0
760,424.875,4796099.0
761,424.3125,4802031.0
762,425.25,4807846.0
763,426.1875,4813828.0
764,429.1875,4820489.0
765,429.75,4827484.0
766,430.6875,4833813.0
767,429.9375,4840155.0
768,429.9375,4846668.0
769,432.375,4853113.0
770,434.25,4859643.0
771,434.8125,4866148.0
772,434.625,4872296.0
773,436.6875,4878555.0
774,435.0,4884797.0
775,437.0625,4891467.0
776,440.4375,4897582.0
777,440.25,4906035.0
778,442.3125,4912488.0
779,445.125,4919121.0
780,444.375,4925329.0
781,446.25,4931479.0
782,448.6875,4937455.0
783,449.4375,4943346.0
784,450.1875,4949295.0
785,452.25,4955735.0
786,453.0,4962161.0
787,454.125,4968549.0
788,455.0625,4974706.0
789,455.8125,4980959.0
790,455.625,4986761.0
791,456.75,4992608.0
792,458.8125,4998843.0
793,458.8125,5004838.0
794,459.9375,5010942.0
795,461.625,5016943.0
796,463.125,5022743.0
797,464.625,5028526.0
798,468.0,5034581.0
799,470.25,5040985.0
800,472.5,5047305.0
801,474.0,5053563.0
802,474.375,5059739.0
803,472.6875,5065900.0
804,472.6875,5071724.0
805,479.0625,5077556.0
806,484.5,5084544.0
807,490.5,5090974.0
808,497.8125,5097333.0
809,500.8125,5103770.0
810,502.125,5110090.0
811,506.0625,5116297.0
812,509.0625,5122116.0
813,509.8125,5127963.0
814,512.4375,5134191.0
815,516.1875,5140766.0
816,516.5625,5147036.0
817,518.0625,5153614.0
818,520.3125,5159770.0
819,520.3125,5165591.0
820,519.375,5171473.0
821,520.875,5177749.0
822,521.625,5184226.0
823,523.125,5190743.0
824,523.875,5196994.0
825,524.8125,5204405.0
826,526.5,5210755.0
827,529.5,5218038.0
828,529.875,5224417.0
829,532.5,5230801.0
830,535.125,5237184.0
831,534.5625,5243551.0
832,536.4375,5249562.0
833,538.875,5255505.0
834,541.6875,5262282.0
835,542.25,5269309.0
836,545.625,5275550.0
837,545.25,5281878.0
838,546.1875,5288018.0
839,547.6875,5294602.0
840,546.9375,5300524.0
841,548.8125,5306541.0
842,551.625,5313043.0
843,553.5,5319451.0
844,554.625,5325781.0
845,556.3125,5332188.0
846,557.4375,5338231.0
847,558.0,5344083.0
848,559.3125,5350971.0
849,561.375,5357597.0
850,562.875,5364276.0
851,563.25,5370640.0
852,566.0625,5377385.0
853,565.5,5383488.0
854,567.375,5389471.0
855,569.0625,5396264.0
856,573.0,5403427.0
857,572.4375,5409805.0
858,575.0625,5416112.0
859,575.0625,5422471.0
860,577.6875,5428588.0
861,579.5625,5434685.0
862,579.0,5441085.0
863,580.125,5447408.0
864,583.875,5453619.0
865,583.6875,5460183.0
866,584.0625,5466516.0
867,584.4375,5472541.0
868,587.4375,5478437.0
869,589.5,5484836.0
870,592.125,5491043.0
871,591.5625,5497267.0
872,590.625,5503771.0
873,591.1875,5509884.0
874,594.0,5516409.0
875,594.9375,5522596.0
876,595.6875,5529164.0
877,597.9375,5536094.0
878,599.25,5542210.0
879,599.25,5548378.0
880,600.75,5554517.0
881,602.25,5560527.0
882,603.5625,5566596.0
883,606.375,5572888.0
884,609.375,5579104.0
885,610.3125,5585319.0
886,610.5,5591572.0
887,612.75,5597528.0
888,613.5,5604528.0
889,614.0625,5610407.0
890,614.25,5617001.0
891,615.375,5625016.0
892,615.1875,5632567.0
893,616.5,5638988.0
894,617.8125,5645049.0
895,616.5,5650990.0
896,614.0625,5657012.0
897,613.6875,5663686.0
898,612.75,5670777.0
899,615.0,5677541.0
900,615.375,5684290.0
901,616.3125,5690582.0
902,618.9375,5696516.0
903,619.5,5702503.0
904,617.25,5708804.0
905,618.9375,5715543.0
906,618.0,5722074.0
907,617.25,5728780.0
908,618.0,5735379.0
909,616.5,5741220.0
910,616.5,5747087.0
911,615.0,5753119.0
912,614.625,5759951.0
913,613.6875,5766920.0
914,613.5,5774127.0
915,615.1875,5780912.0
916,613.3125,5787375.0
917,613.3125,5793306.0
918,614.0625,5800175.0
919,612.375,5807014.0
920,610.875,5813693.0
921,610.125,5820142.0
922,608.8125,5826540.0
923,609.0,5833722.0
924,607.875,5839808.0
925,606.9375,5846560.0
926,606.1875,5853382.0
927,608.0625,5860075.0
928,606.9375,5866875.0
929,606.75,5873709.0
930,605.8125,5879991.0
931,604.5,5885990.0
932,603.75,5892437.0
933,604.3125,5898836.0
934,602.25,5905881.0
935,600.0,5912651.0
936,597.5625,5918808.0
937,596.8125,5924731.0
938,596.8125,5931361.0
939,594.5625,5937992.0
940,593.4375,5944477.0
941,592.875,5950926.0
942,593.4375,5957379.0
943,591.375,5963352.0
944,589.125,5969182.0
945,590.25,5975830.0
946,589.125,5982516.0
947,588.5625,5988682.0
948,588.0,5995494.0
949,585.9375,6001951.0
950,584.0625,6008011.0
951,581.0625,6013853.0
952,580.3125,6020310.0
953,573.0,6027040.0
954,565.6875,6033549.0
955,561.75,6040480.0
956,555.9375,6046950.0
957,556.6875,6053004.0
958,554.625,6058843.0
959,552.5625,6065404.0
960,550.6875,6072047.0
961,551.4375,6078752.0
962,548.25,6085183.0
963,546.1875,6091478.0
964,545.625,6097488.0
965,543.1875,6103333.0
966,540.9375,6109893.0
967,540.75,6116534.0
968,537.9375,6123184.0
969,535.6875,6129580.0
970,536.4375,6135885.0
971,537.1875,6142194.0
972,534.9375,6148110.0
973,535.125,6154429.0
974,533.4375,6161306.0
975,531.75,6167990.0
976,531.375,6174679.0
977,529.6875,6181317.0
978,525.75,6187259.0
979,523.6875,6194050.0
980,521.8125,6201400.0
981,519.1875,6208565.0
982,517.3125,6216086.0
983,515.8125,6223385.0
984,512.8125,6229865.0
985,515.25,6235943.0
986,513.5625,6242017.0
987,512.25,6248109.0
988,511.3125,6254216.0
989,511.6875,6260321.0
990,509.625,6266395.0
991,509.4375,6272549.0
992,507.9375,6280400.0
993,506.8125,6287978.0
994,504.375,6294615.0
995,501.75,6301502.0
996,498.9375,6308385.0
997,498.0,6318917.0
998,497.0625,6324868.0
999,497.0625,6331188.0
1000,495.1875,6337662.0
1001,492.1875,6344049.0
1002,489.375,6350569.0
1003,488.25,6357515.0
1004,488.4375,6363378.0
1005,484.5,6369241.0
1006,481.3125,6375123.0
1007,476.4375,6381601.0
1008,472.5,6388135.0
1009,469.3125,6394552.0
1010,465.75,6400687.0
1011,460.6875,6406775.0
1012,460.875,6412805.0
1013,457.5,6418863.0
1014,455.4375,6425724.0
1015,452.8125,6432631.0
1016,452.0625,6439310.0
1017,451.125,6446415.0
1018,451.875,6453465.0
1019,451.125,6460329.0
1020,448.125,6466903.0
1021,451.125,6473851.0
1022,450.5625,6480726.0
1023,449.8125,6487389.0
1024,448.5,6494291.0
1025,448.3125,6500494.0
1026,445.5,6507122.0
1027,445.125,6513676.0
1028,444.75,6520525.0
1029,442.6875,6527251.0
1030,444.0,6534695.0
1031,443.4375,6540840.0
1032,441.75,6547174.0
1033,441.375,6554248.0
1034,441.5625,6561237.0
1035,438.75,6567802.0
1036,438.9375,6573918.0
1037,439.875,6580217.0
1038,438.5625,6586591.0
1039,438.9375,6593141.0
1040,438.1875,6599576.0
1041,436.6875,6606594.0
1042,436.875,6613868.0
1043,435.9375,6620659.0
1044,435.1875,6627406.0
1045,435.75,6633985.0
1046,437.25,6640600.0
1047,433.125,6647389.0
1048,433.5,6653555.0
1049,434.8125,6659931.0
1050,432.0,6666273.0
1051,433.5,6672935.0
1052,435.75,6679718.0
1053,435.1875,6686592.0
1054,434.0625,6692743.0
1055,434.8125,6699446.0
1056,433.6875,6705946.0
1057,431.8125,6712504.0
1058,434.25,6719303.0
1059,433.875,6726227.0
1060,433.875,6732496.0
1061,433.6875,6738723.0
1062,434.4375,6745283.0
1063,432.9375,6751917.0
1064,434.4375,6758767.0
1065,433.875,6765814.0
1066,434.8125,6772296.0
1067,434.8125,6779204.0
1068,433.3125,6786048.0
1069,432.9375,6792509.0
1070,433.3125,6799493.0
1071,432.375,6805605.0
1072,430.5,6812226.0
1073,431.625,6818987.0
1074,431.625,6825790.0
1075,431.4375,6833044.0
1076,432.75,6840156.0
1077,432.375,6846562.0
1078,434.0625,6853741.0
1079,434.25,6860314.0
1080,433.6875,6867075.0
1081,433.5,6874188.0
1082,433.5,6880564.0
1083,432.1875,6886891.0
1084,432.5625,6893379.0
1085,434.25,6900275.0
1086,435.1875,6906920.0
1087,434.8125,6913111.0
1088,435.1875,6919810.0
1089,434.25,6926332.0
1090,435.0,6932772.0
1091,435.5625,6939922.0
1092,434.4375,6946692.0
1093,434.4375,6952859.0
1094,433.875,6959120.0
1095,432.9375,6966385.0
1096,433.875,6973303.0
1097,433.3125,6980074.0
1098,433.5,6986218.0
1099,434.0625,6992180.0
1100,435.5625,6998615.0
1101,435.375,7005730.0
1102,432.75,7012557.0
1103,434.0625,7019310.0
1104,431.625,7025680.0
1105,430.125,7031621.0
1106,429.0,7037597.0
1107,430.5,7044226.0
1108,429.9375,7051003.0
1109,430.875,7058019.0
1110,431.25,7065026.0
1111,431.4375,7071199.0
1112,434.25,7077070.0
1113,432.75,7083467.0
1114,433.125,7090370.0
1115,434.4375,7097344.0
1116,434.25,7104893.0
1117,435.375,7111772.0
1118,436.6875,7117683.0
1119,438.375,7123546.0
1120,438.9375,7129508.0
1121,439.6875,7135683.0
1122,441.375,7141817.0
1123,441.9375,7148032.0
1124,443.625,7154673.0
1125,446.625,7161125.0
1126,445.6875,7167122.0
1127,445.875,7173495.0
1128,447.9375,7180215.0
1129,447.5625,7187006.0
1130,449.0625,7193437.0
1131,450.375,7199540.0
1132,450.9375,7205463.0
1133,452.25,7211453.0
1134,454.875,7217843.0
1135,454.125,7224335.0
1136,456.75,7231091.0
1137,457.6875,7237571.0
1138,460.125,7243673.0
1139,460.6875,7249589.0
1140,462.75,7255626.0
1141,464.25,7262259.0
1142,464.625,7268394.0
1143,466.5,7275162.0
1144,468.5625,7281722.0
1145,469.6875,7287939.0
1146,470.0625,7293776.0
1147,470.625,7299924.0
1148,471.5625,7306599.0
1149,472.3125,7312840.0
1150,473.25,7319958.0
1151,476.0625,7326654.0
1152,476.4375,7332722.0
1153,478.3125,7338723.0
1154,477.9375,7345076.0
1155,479.4375,7351432.0
1156,481.6875,7357743.0
1157,483.9375,7364760.0
1158,486.75,7371849.0
1159,488.8125,7378340.0
1160,490.125,7384942.0
1161,491.0625,7391151.0
1162,493.5,7398273.0
1163,493.6875,7404952.0
1164,493.125,7411175.0
1165,494.625,7417165.0
1166,496.3125,7423408.0
1167,495.5625,7430178.0
1168,499.6875,7436708.0
1169,503.4375,7443502.0
1170,503.8125,7449619.0
1171,507.75,7455513.0
1172,509.625,7461706.0
1173,508.3125,7467959.0
1174,510.9375,7474105.0
1175,511.5,7480799.0
1176,510.9375,7487453.0
1177,512.25,7493981.0
1178,513.0,7499952.0
1179,514.3125,7505958.0
1180,514.875,7512215.0
1181,517.5,7518643.0
1182,519.1875,7525255.0
1183,520.3125,7532502.0
1184,522.1875,7538720.0
1185,523.5,7544746.0
1186,525.5625,7550798.0
1187,525.5625,7557002.0
1188,526.6875,7563421.0
1189,527.25,7570046.0
1190,528.0,7576624.0
1191,529.875,7582956.0
1192,529.6875,7588915.0
1193,534.1875,7594926.0
1194,539.8125,7601163.0
1195,543.375,7607412.0
1196,549.5625,7613971.0
1197,556.875,7620903.0
1198,559.3125,7627435.0
1199,561.75,7633260.0
1200,563.0625,7639284.0
1201,564.75,7645469.0
1202,564.375,7651662.0
1203,566.8125,7658582.0
1204,568.3125,7665116.0
1205,567.375,7671721.0
1206,567.9375,7677858.0
1207,568.125,7683861.0
1208,568.3125,7690308.0
1209,570.75,7696784.0
1210,571.3125,7703514.0
1211,571.125,7710237.0
1212,572.625,7716847.0
1213,575.0625,7723155.0
1214,576.1875,7729661.0
1215,578.625,7736088.0
1216,579.0,7742865.0
1217,580.3125,7749671.0
1218,582.75,7755714.0
1219,584.25,7761873.0
1220,584.0625,7768145.0
1221,584.4375,7774357.0
1222,585.1875,7781035.0
1223,585.1875,7787628.0
1224,586.6875,7793792.0
1225,588.375,7799805.0
1226,590.0625,7806072.0
1227,589.6875,7812350.0
1228,592.6875,7818709.0
1229,594.1875,7825554.0
1230,595.875,7831955.0
1231,595.6875,7839122.0
1232,595.875,7846146.0
1233,596.0625,7852336.0
1234,597.0,7859191.0
1235,597.375,7866191.0
1236,597.0,7872311.0
1237,598.6875,7878671.0
1238,599.625,7885007.0
1239,601.3125,7891534.0
1240,601.875,7898456.0
1241,602.625,7905573.0
1242,603.0,7911570.0
1243,604.5,7917583.0
1244,603.75,7923811.0
1245,603.5625,7930173.0
1246,606.375,7937057.0
1247,606.75,7943446.0
1248,606.75,7949597.0
1249,609.5625,7955543.0
1250,609.9375,7961840.0
1251,610.6875,7968359.0
1252,612.0,7974737.0
1253,612.1875,7981762.0
1254,610.3125,7988632.0
1255,611.25,7994726.0
1256,614.4375,8000706.0
1257,613.5,8006962.0
1258,612.9375,8013281.0
1259,612.0,8020101.0
1260,610.125,8026517.0
1261,610.6875,8032588.0
1262,611.4375,8038501.0
1263,609.75,8044638.0
1264,608.8125,8051130.0
1265,610.5,8057553.0
1266,609.9375,8064360.0
1267,608.8125,8071198.0
1268,608.625,8077362.0
1269,608.625,8083412.0
1270,608.625,8090293.0
1271,609.375,8096612.0
1272,609.5625,8103481.0
1273,609.1875,8110563.0
1274,610.3125,8116561.0
1275,609.5625,8122903.0
1276,608.0625,8129410.0
1277,606.5625,8136112.0
1278,605.4375,8142962.0
1279,602.25,8150089.0
1280,602.8125,8156084.0
1281,601.5,8162393.0
1282,600.375,8168692.0
1283,601.125,8174900.0
1284,600.9375,8182144.0
1285,600.0,8188764.0
1286,600.9375,8194912.0
1287,604.3125,8200870.0
1288,601.5,8207286.0
1289,601.3125,8213993.0
1290,599.0625,8220754.0
1291,595.5,8227282.0
1292,594.9375,8233353.0
1293,595.5,8239270.0
1294,588.5625,8245295.0
1295,582.375,8251789.0
1296,577.5,8258519.0
1297,570.1875,8265350.0
1298,568.125,8272558.0
1299,568.875,8279068.0
1300,568.3125,8285228.0
1301,567.5625,8291145.0
1302,566.4375,8297347.0
1303,565.3125,8303841.0
1304,564.9375,8310780.0
1305,564.9375,8317459.0
1306,562.5,8323588.0
1307,560.625,8329501.0
1308,561.1875,8335448.0
1309,559.5,8342525.0
1310,554.625,8349233.0
1311,552.9375,8356662.0
1312,552.9375,8364577.0
1313,550.125,8371297.0
1314,548.625,8377285.0
1315,547.5,8383385.0
1316,545.0625,8390042.0
1317,548.625,8396624.0
1318,545.4375,8403442.0
1319,545.625,8410322.0
1320,545.0625,8416332.0
1321,544.3125,8422223.0
1322,542.0625,8428567.0
1323,540.0,8434971.0
1324,538.875,8441559.0
1325,534.75,8447833.0
1326,534.375,8453845.0
1327,533.4375,8459709.0
1328,531.0,8465534.0
1329,531.0,8471851.0
1330,530.25,8478304.0
1331,528.375,8484940.0
1332,528.0,8491641.0
1333,529.6875,8498083.0
1334,530.25,8504007.0
1335,529.3125,8509882.0
1336,527.4375,8515718.0
1337,526.3125,8522193.0
1338,523.3125,8528654.0
1339,521.8125,8535562.0
1340,521.0625,8542615.0
1341,519.1875,8548757.0
1342,518.625,8554654.0
1343,517.875,8561225.0
1344,515.25,8567729.0
1345,514.875,8574156.0
1346,513.1875,8581374.0
1347,512.0625,8587885.0
1348,511.875,8594378.0
1349,512.0625,8600544.0
1350,509.625,8606574.0
1351,508.6875,8612752.0
1352,507.9375,8618927.0
1353,507.375,8625434.0
1354,506.25,8631696.0
1355,504.375,8637860.0
1356,502.875,8643712.0
1357,500.625,8649824.0
1358,499.875,8656613.0
1359,498.5625,8663024.0
1360,498.5625,8669801.0
1361,496.875,8676499.0
1362,495.0,8682528.0
1363,494.25,8688527.0
1364,491.8125,8695126.0
1365,486.5625,8701717.0
1366,483.375,8708358.0
1367,480.1875,8715028.0
1368,479.625,8721020.0
1369,475.3125,8726960.0
1370,474.1875,8733180.0
1371,473.625,8739399.0
1372,470.8125,8746413.0
1373,468.9375,8752880.0
1374,468.375,8758949.0
1375,468.375,8764843.0
1376,467.625,8771248.0
1377,466.875,8777680.0
1378,464.625,8784066.0
1379,462.75,8791210.0
1380,462.375,8797649.0
1381,461.4375,8803648.0
1382,459.5625,8809606.0
1383,459.375,8816015.0
1384,460.3125,8822275.0
1385,459.0,8829546.0
1386,457.3125,8836652.0
1387,456.0,8842631.0
1388,453.375,8848613.0
1389,453.1875,8854702.0
1390,452.625,8861214.0
1391,450.5625,8868088.0
1392,448.6875,8874628.0
1393,448.5,8880891.0
1394,446.8125,8886747.0
1395,447.1875,8893191.0
1396,447.0,8899597.0
1397,447.0,8905791.0
1398,445.3125,8912724.0
1399,447.75,8919224.0
1400,446.4375,8925285.0
1401,445.3125,8931283.0
1402,446.25,8937381.0
1403,444.1875,8943785.0
1404,442.5,8951091.0
1405,441.0,8957644.0
1406,441.9375,8963726.0
1407,439.5,8969595.0
1408,438.75,8975632.0
1409,440.625,8981737.0
1410,441.5625,8988043.0
1411,441.75,8994738.0
1412,442.125,9001652.0
1413,443.0625,9007791.0
1414,443.4375,9013641.0
1415,441.75,9020084.0
1416,438.0,9026144.0
1417,436.3125,9032678.0
1418,433.875,9038892.0
1419,431.25,9044988.0
1420,429.9375,9051941.0
1421,430.5,9058460.0
1422,429.1875,9064558.0
1423,429.1875,9070861.0
1424,430.5,9077106.0
1425,431.4375,9084023.0
1426,430.125,9090560.0
1427,431.25,9096850.0
1428,431.25,9102779.0
1429,430.3125,9108826.0
1430,430.3125,9115265.0
1431,430.6875,9121461.0
1432,428.25,9128152.0
1433,430.3125,9134949.0
1434,429.5625,9141193.0
1435,431.0625,9147011.0
1436,429.5625,9153061.0
1437,429.75,9159639.0
1438,430.125,9166202.0
1439,430.6875,9173726.0
1440,430.875,9180906.0
1441,429.5625,9186895.0
1442,428.625,9192832.0
1443,429.375,9199335.0
1444,430.6875,9205901.0
1445,431.625,9212581.0
1446,430.3125,9219327.0
1447,429.9375,9225739.0
1448,429.5625,9231872.0
1449,429.9375,9237963.0
1450,429.375,9244378.0
1451,429.375,9251279.0
1452,431.0625,9258525.0
1453,430.3125,9265236.0
1454,431.4375,9271302.0
1455,432.0,9277250.0
1456,433.3125,9283482.0
1457,434.0625,9289780.0
1458,432.1875,9296659.0
1459,432.1875,9303440.0
1460,432.1875,9309553.0
1461,433.125,9315719.0
1462,432.5625,9322251.0
1463,431.0625,9328600.0
1464,430.875,9335522.0
1465,432.1875,9342037.0
1466,432.9375,9348137.0
1467,432.5625,9354057.0
1468,433.3125,9360829.0
1469,433.3125,9367179.0
1470,433.6875,9374078.0
1471,435.375,9380663.0
1472,435.5625,9386866.0
1473,436.125,9392740.0
1474,437.8125,9399003.0
1475,437.8125,9405742.0
1476,438.375,9412929.0
1477,439.125,9419538.0
1478,438.75,9425782.0
1479,439.5,9431679.0
1480,440.0625,9438028.0
1481,440.25,9444244.0
1482,441.1875,9450567.0
1483,444.0,9457423.0
1484,444.375,9464356.0
1485,444.9375,9470735.0
1486,447.0,9476584.0
1487,447.5625,9482585.0
1488,447.1875,9488904.0
1489,448.6875,9495253.0
1490,449.0625,9501793.0
1491,450.0,9508646.0
1492,449.625,9515312.0
1493,451.5,9521263.0
1494,450.75,9527319.0
1495,453.375,9533732.0
1496,455.25,9540027.0
1497,457.125,9546548.0
1498,458.0625,9553304.0
1499,459.75,9559619.0
1500,461.25,9565648.0
1501,462.0,9571605.0
1502,463.6875,9577832.0
1503,464.625,9584402.0
1504,465.1875,9590986.0
1505,467.8125,9597959.0
1506,467.25,9604553.0
1507,469.5,9611002.0
1508,469.875,9617420.0
1509,471.0,9624009.0
1510,470.0625,9631200.0
1511,474.1875,9638038.0
1512,474.9375,9644008.0
1513,480.375,9649999.0
1514,487.3125,9656239.0
1515,494.4375,9662527.0
1516,502.3125,9668779.0
1517,510.1875,9675764.0
1518,520.125,9682316.0
1519,525.0,9688816.0
1520,529.125,9695119.0
1521,533.0625,9701422.0
1522,534.5625,9708396.0
1523,533.625,9715202.0
1524,535.6875,9721634.0
1525,535.5,9727940.0
1526,537.1875,9734343.0
1527,537.75,9741337.0
1528,539.4375,9747697.0
1529,539.25,9753671.0
1530,540.1875,9759606.0
1531,540.75,9766011.0
1532,540.375,9772461.0
1533,543.0,9778689.0
1534,545.0625,9785488.0
1535,545.625,9791808.0
1536,547.3125,9797783.0
1537,547.3125,9803683.0
1538,546.5625,9809851.0
1539,548.0625,9816328.0
1540,547.125,9822665.0
1541,546.1875,9829143.0
1542,547.6875,9835753.0
1543,547.5,9841794.0
1544,547.5,9847878.0
1545,549.1875,9854119.0
1546,551.8125,9860584.0
1547,553.6875,9866835.0
1548,554.8125,9873505.0
1549,557.8125,9880173.0
1550,558.1875,9886268.0
1551,559.5,9892500.0
1552,562.125,9898550.0
1553,561.375,9904859.0
1554,560.25,9911885.0
1555,560.4375,9919936.0
1556,558.9375,9926617.0
1557,559.3125,9933119.0
1558,558.9375,9939668.0
1559,560.625,9946489.0
1560,561.5625,9952568.0
1561,564.9375,9958406.0
1562,566.8125,9964780.0
1563,569.8125,9971554.0
1564,570.5625,9977811.0
1565,569.25,9984567.0
1566,569.625,9991030.0
1567,570.375,9997193.0
1568,572.8125,10003037.0
