,data,time
0,-94.125,5684.0
1,-93.375,11464.0
2,-94.125,17387.0
3,-93.375,23428.0
4,-93.375,29707.0
5,-93.5625,36420.0
6,-92.4375,43054.0
7,-93.375,49527.0
8,-93.75,55883.0
9,-93.1875,62751.0
10,-95.25,69295.0
11,-95.25,75971.0
12,-92.25,83164.0
13,-93.0,89661.0
14,-94.3125,96647.0
15,-93.75,103041.0
16,-93.9375,109498.0
17,-93.375,115495.0
18,-93.5625,121400.0
19,-93.0,127645.0
20,-94.125,134770.0
21,-92.0625,141351.0
22,-92.0625,147749.0
23,-92.25,154008.0
24,-92.0625,160045.0
25,-92.8125,165832.0
26,-93.375,171714.0
27,-93.375,178104.0
28,-92.8125,185545.0
29,-93.1875,192392.0
30,-92.8125,198727.0
31,-93.1875,205495.0
32,-93.0,211485.0
33,-92.4375,217760.0
34,-91.875,223781.0
35,-92.4375,229605.0
36,-91.6875,236145.0
37,-91.3125,243192.0
38,-90.5625,249662.0
39,-90.5625,256020.0
40,-91.125,262855.0
41,-93.1875,268818.0
42,-94.3125,274625.0
43,-91.6875,280833.0
44,-92.0625,287751.0
45,-94.125,294380.0
46,-94.3125,300719.0
47,-94.5,306932.0
48,-95.8125,313106.0
49,-94.125,319095.0
50,-92.0625,325407.0
51,-93.9375,333543.0
52,-90.75,340432.0
53,-92.25,347203.0
54,-91.5,353632.0
55,-93.1875,359549.0
56,-92.625,365601.0
57,-95.0625,372084.0
58,-95.0625,379262.0
59,-94.5,386449.0
60,-95.25,392952.0
61,-94.125,398957.0
62,-92.625,405524.0
63,-92.4375,411709.0
64,-92.4375,417631.0
65,-93.1875,424184.0
66,-92.625,431013.0
67,-94.6875,437865.0
68,-94.5,444945.0
69,-97.5,451076.0
70,-96.1875,456941.0
71,-96.375,462854.0
72,-99.9375,468715.0
73,-98.8125,475483.0
74,-97.5,482607.0
75,-96.5625,489795.0
76,-95.8125,496802.0
77,-93.0,502664.0
78,-93.1875,508650.0
79,-93.5625,514632.0
80,-93.1875,520535.0
81,-93.5625,527093.0
82,-94.875,534000.0
83,-93.9375,540948.0
84,-95.0625,547878.0
85,-96.375,554295.0
86,-96.0,560142.0
87,-94.6875,566267.0
88,-94.875,572766.0
89,-93.9375,579796.0
90,-92.8125,586815.0
91,-94.3125,593409.0
92,-93.5625,599967.0
93,-93.9375,605643.0
94,-93.1875,611439.0
95,-93.0,617333.0
96,-92.8125,624092.0
97,-92.0625,630589.0
98,-91.875,637212.0
99,-91.3125,643671.0
100,-92.0625,650347.0
101,-93.0,656107.0
102,-92.25,661872.0
103,-91.875,667685.0
104,-92.0625,674422.0
105,-92.625,681419.0
106,-93.1875,688001.0
107,-94.6875,694514.0
108,-92.625,701013.0
109,-95.625,706997.0
110,-95.4375,712785.0
111,-93.9375,719047.0
112,-93.1875,725875.0
113,-94.5,732768.0
114,-93.9375,739316.0
115,-92.25,745515.0
116,-92.4375,751472.0
117,-92.8125,757311.0
118,-91.6875,763259.0
119,-92.25,770349.0
120,-93.75,776901.0
121,-92.25,783362.0
122,-93.75,789820.0
123,-93.75,796220.0
124,-93.1875,802137.0
125,-92.625,808586.0
126,-91.3125,815801.0
127,-89.4375,822494.0
128,-90.9375,829124.0
129,-89.8125,835765.0
130,-87.5625,841670.0
131,-87.75,847458.0
132,-89.4375,853304.0
133,-89.625,859987.0
134,-90.0,867420.0
135,-90.1875,874133.0
136,-89.8125,880785.0
137,-90.5625,887304.0
138,-91.5,893305.0
139,-90.375,899299.0
140,-87.9375,905470.0
141,-87.9375,911994.0
142,-88.875,919195.0
143,-88.5,925593.0
144,-87.375,931798.0
145,-87.5625,937594.0
146,-87.0,943420.0
147,-87.5625,949317.0
148,-87.9375,955661.0
149,-84.1875,963052.0
150,-85.125,969358.0
151,-83.8125,976044.0
152,-82.6875,982160.0
153,-83.625,988120.0
154,-82.5,994806.0
155,-81.5625,1001864.0
156,-81.375,1009051.0
157,-84.0,1015524.0
158,-83.25,1021853.0
159,-84.0,1027795.0
160,-84.75,1033663.0
161,-81.5625,1039696.0
162,-82.875,1046751.0
163,-82.3125,1053637.0
164,-82.5,1060915.0
165,-81.75,1067448.0
166,-80.4375,1073481.0
167,-80.25,1079368.0
168,-79.875,1085490.0
169,-81.5625,1092208.0
170,-82.3125,1098997.0
171,-80.4375,1105381.0
172,-81.9375,1111672.0
173,-81.75,1117444.0
174,-81.5625,1123272.0
175,-80.8125,1129527.0
176,-80.625,1136419.0
177,-79.6875,1143103.0
178,-80.25,1149576.0
179,-79.125,1155844.0
180,-77.8125,1161769.0
181,-77.625,1167546.0
182,-76.5,1173401.0
183,-73.3125,1180029.0
184,-72.1875,1186916.0
185,-73.5,1193717.0
186,-73.125,1200417.0
187,-74.0625,1206828.0
188,-75.75,1212847.0
189,-76.125,1219166.0
190,-74.25,1225669.0
191,-75.75,1232409.0
192,-75.9375,1239165.0
193,-73.3125,1245603.0
194,-74.625,1251965.0
195,-72.75,1257706.0
196,-71.4375,1263937.0
197,-69.9375,1269756.0
198,-69.9375,1275594.0
199,-68.25,1282538.0
200,-67.6875,1289944.0
201,-65.8125,1296796.0
202,-64.3125,1303435.0
203,-64.3125,1310144.0
204,-64.125,1316530.0
205,-64.6875,1322333.0
206,-63.9375,1328824.0
207,-65.4375,1335154.0
208,-63.9375,1341829.0
209,-63.0,1348671.0
210,-63.75,1354619.0
211,-63.0,1360415.0
212,-61.875,1366277.0
213,-62.8125,1372904.0
214,-61.875,1379964.0
215,-59.625,1386291.0
216,-59.4375,1392515.0
217,-58.3125,1398988.0
218,-56.4375,1404983.0
219,-56.4375,1410780.0
220,-56.625,1417037.0
221,-57.375,1423734.0
222,-58.125,1430029.0
223,-56.625,1436111.0
224,-56.625,1442033.0
225,-56.8125,1448673.0
226,-55.6875,1455000.0
227,-52.6875,1461711.0
228,-54.1875,1469426.0
229,-55.125,1476698.0
230,-51.5625,1483384.0
231,-51.9375,1490089.0
232,-48.9375,1498396.0
233,-49.125,1504871.0
234,-51.1875,1511790.0
235,-49.3125,1518614.0
236,-50.625,1524918.0
237,-51.75,1531758.0
238,-50.625,1539538.0
239,-49.875,1545589.0
240,-50.0625,1551449.0
241,-49.3125,1557608.0
242,-48.5625,1564588.0
243,-49.125,1571142.0
244,-46.5,1577485.0
245,-43.125,1584203.0
246,-42.1875,1590078.0
247,-42.375,1595892.0
248,-43.5,1601709.0
249,-42.375,1607522.0
250,-42.1875,1613377.0
251,-41.4375,1619735.0
252,-39.9375,1626344.0
253,-41.0625,1632620.0
254,-39.1875,1638850.0
255,-39.1875,1644954.0
256,-39.75,1650863.0
257,-40.6875,1656678.0
258,-39.75,1662499.0
259,-38.625,1668763.0
260,-38.4375,1675455.0
261,-35.0625,1682562.0
262,-34.3125,1689263.0
263,-34.875,1695345.0
264,-33.75,1701275.0
265,-34.875,1707128.0
266,-34.875,1713662.0
267,-34.6875,1720567.0
268,-34.125,1727442.0
269,-32.4375,1734022.0
270,-31.875,1741013.0
271,-31.6875,1746824.0
272,-30.9375,1752661.0
273,-27.0,1758528.0
274,-26.8125,1764971.0
275,-27.9375,1771715.0
276,-25.3125,1778840.0
277,-24.75,1785108.0
278,-25.3125,1791442.0
279,-25.125,1797525.0
280,-23.8125,1803493.0
281,-22.5,1810185.0
282,-24.9375,1816699.0
283,-24.1875,1823254.0
284,-25.6875,1829567.0
285,-25.125,1835800.0
286,-23.625,1841840.0
287,-24.375,1847971.0
288,-24.0,1853980.0
289,-22.6875,1860404.0
290,-22.3125,1867495.0
291,-21.9375,1874292.0
292,-20.625,1880957.0
293,-20.0625,1887228.0
294,-19.5,1893162.0
295,-18.0,1899032.0
296,-17.4375,1905417.0
297,-18.0,1912045.0
298,-19.3125,1918519.0
299,-18.375,1924825.0
300,-20.0625,1930819.0
301,-18.75,1936816.0
302,-17.625,1942759.0
303,-17.8125,1948736.0
304,-16.5,1954727.0
305,-14.4375,1961619.0
306,-15.0,1968369.0
307,-13.875,1974731.0
308,-14.0625,1981229.0
309,-12.5625,1987234.0
310,-13.5,1993145.0
311,-11.8125,1999163.0
312,-12.375,2005271.0
313,-12.75,2012244.0
314,-13.3125,2019093.0
315,-11.4375,2025425.0
316,-12.5625,2031687.0
317,-13.125,2037693.0
318,-11.25,2043558.0
319,-11.4375,2050109.0
320,-10.6875,2056805.0
321,-9.375,2063042.0
322,-8.4375,2069494.0
323,-8.0625,2075498.0
324,-7.3125,2081982.0
325,-8.25,2088213.0
326,-7.125,2094302.0
327,-6.0,2104372.0
328,-6.1875,2114089.0
329,-3.375,2121078.0
330,-4.875,2127114.0
331,-5.8125,2133272.0
332,-2.625,2139185.0
333,-1.875,2145175.0
334,-3.1875,2151471.0
335,-3.1875,2158130.0
336,-2.0625,2164390.0
337,-1.6875,2171093.0
338,0.0,2177057.0
339,-0.375,2182948.0
340,-1.125,2189625.0
341,0.375,2196125.0
342,2.625,2202391.0
343,2.4375,2208866.0
344,4.875,2214936.0
345,6.9375,2220862.0
346,4.3125,2226795.0
347,2.0625,2233568.0
348,1.5,2240986.0
349,2.4375,2247497.0
350,2.625,2254137.0
351,4.125,2260555.0
352,6.1875,2266612.0
353,4.875,2272463.0
354,5.8125,2278823.0
355,6.1875,2285209.0
356,6.375,2291573.0
357,7.6875,2298226.0
358,8.25,2304251.0
359,8.625,2310134.0
360,10.3125,2316121.0
361,11.625,2323145.0
362,12.1875,2330298.0
363,9.75,2337489.0
364,11.4375,2343958.0
365,10.875,2350272.0
366,10.6875,2356429.0
367,9.5625,2362240.0
368,8.625,2368709.0
369,9.1875,2375368.0
370,10.3125,2381720.0
371,12.0,2388077.0
372,13.5,2394253.0
373,13.5,2400120.0
374,13.3125,2405990.0
375,12.9375,2412704.0
376,14.4375,2419821.0
377,15.5625,2426212.0
378,16.3125,2432538.0
379,17.0625,2439124.0
380,17.4375,2445117.0
381,17.4375,2450977.0
382,18.0,2457326.0
383,17.25,2463471.0
384,18.0,2469926.0
385,15.375,2476747.0
386,15.5625,2483193.0
387,14.8125,2489260.0
388,15.9375,2495060.0
389,17.25,2500997.0
390,19.6875,2507219.0
391,19.3125,2513964.0
392,21.1875,2520446.0
393,22.5,2526830.0
394,22.125,2533147.0
395,23.25,2539153.0
396,24.0,2545003.0
397,23.625,2550855.0
398,23.8125,2557008.0
399,24.9375,2563713.0
400,23.4375,2569960.0
401,24.1875,2576404.0
402,26.0625,2582608.0
403,25.5,2588906.0
404,27.0,2594718.0
405,27.5625,2600564.0
406,27.9375,2606381.0
407,28.125,2613034.0
408,27.9375,2620105.0
409,29.625,2627020.0
410,28.125,2633584.0
411,30.375,2639997.0
412,32.4375,2645967.0
413,32.25,2651750.0
414,30.9375,2657970.0
415,32.4375,2664442.0
416,31.6875,2670857.0
417,32.0625,2677214.0
418,33.9375,2683365.0
419,33.9375,2689621.0
420,32.0625,2695651.0
421,33.1875,2701604.0
422,33.5625,2707821.0
423,33.5625,2714333.0
424,36.0,2720618.0
425,35.0625,2727104.0
426,35.0625,2733365.0
427,35.0625,2739576.0
428,37.125,2746060.0
429,36.75,2752940.0
430,38.4375,2759120.0
431,39.75,2765405.0
432,38.4375,2771706.0
433,40.5,2778206.0
434,40.125,2784051.0
435,40.125,2789924.0
436,42.1875,2796155.0
437,44.8125,2802919.0
438,42.75,2809579.0
439,43.3125,2815982.0
440,44.25,2822089.0
441,46.5,2828084.0
442,45.0,2833903.0
443,46.3125,2839807.0
444,47.0625,2846316.0
445,44.25,2852559.0
446,45.75,2859072.0
447,46.3125,2865470.0
448,46.6875,2871516.0
449,46.125,2877341.0
450,48.5625,2883191.0
451,48.9375,2889014.0
452,49.3125,2895144.0
453,50.25,2901651.0
454,51.375,2908062.0
455,52.875,2914378.0
456,51.375,2920950.0
457,54.5625,2927216.0
458,53.625,2933088.0
459,53.0625,2938921.0
460,54.9375,2945055.0
461,54.375,2951415.0
462,52.875,2957517.0
463,54.5625,2963904.0
464,53.625,2970251.0
465,55.5,2976507.0
466,56.625,2983169.0
467,56.8125,2989985.0
468,59.4375,2996717.0
469,59.4375,3003344.0
470,54.9375,3010076.0
471,58.125,3016196.0
472,55.3125,3022404.0
473,57.1875,3028286.0
474,56.0625,3035125.0
475,58.3125,3042521.0
476,57.75,3049612.0
477,58.5,3056452.0
478,57.75,3062941.0
479,61.5,3068870.0
480,62.25,3074879.0
481,64.875,3081180.0
482,65.25,3087937.0
483,64.125,3094758.0
484,66.375,3101149.0
485,66.75,3107120.0
486,65.0625,3113024.0
487,66.375,3118952.0
488,67.3125,3124996.0
489,66.375,3132134.0
490,64.3125,3139087.0
491,67.5,3145351.0
492,67.3125,3151711.0
493,67.875,3157917.0
494,73.875,3163701.0
495,70.875,3170332.0
496,69.0,3176575.0
497,69.9375,3183019.0
498,69.9375,3189321.0
499,70.125,3195301.0
500,72.0,3201163.0
501,70.3125,3206976.0
502,69.75,3212875.0
503,70.125,3219218.0
504,71.25,3225646.0
505,71.0625,3231772.0
506,71.625,3238032.0
507,71.4375,3244542.0
508,72.5625,3250907.0
509,73.875,3256737.0
510,74.8125,3263183.0
511,76.875,3269976.0
512,76.6875,3276217.0
513,79.3125,3282385.0
514,78.0,3288812.0
515,80.4375,3295012.0
516,81.9375,3300779.0
517,81.75,3307389.0
518,83.625,3314176.0
519,84.1875,3320470.0
520,82.5,3327040.0
521,83.25,3333018.0
522,84.9375,3338789.0
523,85.6875,3344594.0
524,85.125,3350504.0
525,83.8125,3357129.0
526,82.875,3363671.0
527,84.1875,3370208.0
528,84.75,3376391.0
529,84.9375,3382412.0
530,86.25,3388329.0
531,85.5,3394151.0
532,85.6875,3401105.0
533,87.5625,3408159.0
534,86.625,3414904.0
535,89.0625,3420902.0
536,89.25,3426917.0
537,87.9375,3432727.0
538,89.4375,3438531.0
539,89.25,3444777.0
540,88.125,3451119.0
541,89.0625,3457191.0
542,88.3125,3463381.0
543,88.3125,3469645.0
544,88.125,3475914.0
545,89.8125,3481783.0
546,90.5625,3487692.0
547,90.75,3493837.0
548,91.5,3500152.0
549,91.6875,3506265.0
550,92.0625,3512209.0
551,92.8125,3518237.0
552,93.9375,3524195.0
553,94.3125,3530281.0
554,92.625,3537951.0
555,94.5,3544403.0
556,93.1875,3550889.0
557,92.8125,3557005.0
558,92.4375,3563039.0
559,94.875,3568890.0
560,93.75,3574732.0
561,95.0625,3580678.0
562,96.1875,3587434.0
563,96.0,3593684.0
564,96.75,3599764.0
565,95.625,3606054.0
566,96.9375,3612076.0
567,98.25,3618302.0
568,99.0,3624314.0
569,98.625,3630168.0
570,98.625,3636009.0
571,99.9375,3642195.0
572,100.3125,3648609.0
573,100.125,3654976.0
574,101.0625,3661170.0
575,100.875,3667320.0
576,98.625,3673257.0
577,98.25,3679068.0
578,100.125,3684900.0
579,99.0,3690835.0
580,99.9375,3697658.0
581,98.0625,3704185.0
582,98.4375,3710483.0
583,100.3125,3716533.0
584,101.4375,3722532.0
585,102.0,3728367.0
586,102.5625,3734191.0
587,104.0625,3740026.0
588,106.3125,3746150.0
589,106.3125,3752620.0
590,104.8125,3758696.0
591,105.375,3764886.0
592,101.8125,3771004.0
593,101.625,3777084.0
594,100.125,3783014.0
595,100.875,3788835.0
596,102.0,3794922.0
597,103.5,3801773.0
598,103.6875,3808083.0
599,105.9375,3814442.0
600,105.9375,3820793.0
601,103.125,3826756.0
602,105.75,3832601.0
603,106.125,3838448.0
604,106.5,3844264.0
605,108.1875,3850110.0
606,110.25,3856382.0
607,111.1875,3862543.0
608,110.625,3868769.0
609,107.25,3874933.0
610,109.6875,3881119.0
611,108.5625,3887061.0
612,110.25,3892910.0
613,109.125,3898718.0
614,111.9375,3905252.0
615,110.25,3911725.0
616,110.0625,3918234.0
617,110.25,3924306.0
618,109.3125,3930404.0
619,109.3125,3936720.0
620,108.75,3942590.0
621,110.25,3948918.0
622,111.9375,3956103.0
623,109.3125,3962876.0
624,111.75,3969218.0
625,108.375,3976197.0
626,111.75,3982184.0
627,108.375,3988329.0
628,110.25,3995430.0
629,106.3125,4001889.0
630,108.375,4008733.0
631,110.625,4015433.0
632,106.875,4021519.0
633,110.625,4027573.0
634,109.5,4034013.0
635,111.375,4041356.0
636,110.0625,4048723.0
637,112.3125,4055370.0
638,112.125,4061610.0
639,110.4375,4068370.0
640,109.125,4074360.0
641,109.6875,4080246.0
642,107.0625,4086383.0
643,107.8125,4092657.0
644,108.375,4099594.0
645,108.1875,4106236.0
646,106.125,4112253.0
647,108.375,4118083.0
648,103.5,4124354.0
649,105.5625,4130873.0
650,106.3125,4138163.0
651,107.25,4144769.0
652,106.125,4151223.0
653,108.375,4157290.0
654,107.8125,4163344.0
655,106.6875,4169549.0
656,108.0,4176079.0
657,106.875,4182692.0
658,105.75,4189020.0
659,105.75,4195005.0
660,105.75,4200878.0
661,106.3125,4207281.0
662,108.5625,4213499.0
663,108.1875,4219506.0
664,108.75,4226164.0
665,108.75,4232767.0
666,108.9375,4238965.0
667,110.625,4244832.0
668,111.75,4251017.0
669,111.75,4258922.0
670,111.1875,4265656.0
671,110.8125,4272290.0
672,111.1875,4279094.0
673,111.0,4285360.0
674,108.5625,4291661.0
675,109.6875,4297999.0
676,111.0,4305465.0
677,111.75,4312751.0
678,110.25,4319503.0
679,109.875,4326214.0
680,108.375,4332813.0
681,108.1875,4338778.0
682,108.9375,4345316.0
683,108.0,4352636.0
684,107.4375,4359637.0
685,107.625,4366323.0
686,106.5,4372997.0
687,108.1875,4378948.0
688,106.3125,4385294.0
689,107.0625,4391645.0
690,108.5625,4398473.0
691,106.125,4406015.0
692,107.625,4412764.0
693,107.625,4419453.0
694,104.8125,4426101.0
695,104.8125,4432298.0
696,105.0,4438618.0
697,103.6875,4444908.0
698,103.6875,4452405.0
699,104.8125,4460083.0
700,104.8125,4466996.0
701,105.5625,4473637.0
702,107.0625,4480300.0
703,107.25,4486251.0
704,105.1875,4492894.0
705,107.4375,4500121.0
706,107.625,4506994.0
707,108.5625,4513189.0
708,109.5,4519406.0
709,107.0625,4525669.0
710,107.0625,4531519.0
711,107.8125,4538430.0
712,106.5,4545919.0
713,106.6875,4553349.0
714,108.1875,4560410.0
715,108.1875,4567233.0
716,109.125,4573889.0
717,108.0,4580541.0
718,106.3125,4587089.0
719,106.5,4593490.0
720,108.375,4600973.0
721,107.4375,4608094.0
722,106.125,4614938.0
723,106.3125,4621853.0
724,106.875,4628632.0
725,106.3125,4635347.0
726,106.5,4641897.0
727,105.75,4648554.0
728,105.75,4656159.0
729,106.3125,4662632.0
730,105.0,4669111.0
731,106.125,4675287.0
732,109.6875,4682173.0
733,108.0,4688438.0
734,107.4375,4694514.0
735,108.75,4700501.0
736,108.75,4706485.0
737,109.6875,4712873.0
738,108.9375,4719417.0
739,110.25,4725734.0
740,110.25,4731934.0
741,111.375,4738665.0
742,108.9375,4744826.0
743,108.9375,4750866.0
744,109.3125,4756894.0
745,109.5,4763118.0
746,108.9375,4769095.0
747,110.8125,4775069.0
748,109.875,4781613.0
749,109.5,4788597.0
750,107.8125,4795259.0
751,108.1875,4801469.0
752,108.75,4807515.0
753,110.8125,4813678.0
754,111.5625,4819543.0
755,112.5,4826132.0
756,111.1875,4832556.0
757,109.3125,4838691.0
758,109.3125,4844854.0
759,106.6875,4850819.0
760,107.4375,4856671.0
761,107.4375,4862558.0
762,108.1875,4868606.0
763,107.4375,4875085.0
764,109.3125,4881760.0
765,108.5625,4887924.0
766,107.25,4894121.0
767,108.375,4900182.0
768,108.75,4906057.0
769,110.0625,4911899.0
770,110.625,4918103.0
771,110.0625,4924668.0
772,110.8125,4931069.0
773,110.25,4937311.0
774,109.125,4943547.0
775,110.25,4949678.0
776,108.9375,4955782.0
777,108.75,4961630.0
778,108.9375,4967510.0
779,109.125,4973654.0
780,109.5,4979885.0
781,111.0,4986039.0
782,108.75,4992143.0
783,109.3125,4998186.0
